<Actel_Data_File>
    <format name="NVM File" version="01.00.00"/>
    <header>
        <die>
            M2S090TS
        </die>
        <family>
            SmartFusion2
        </family>
        <module>
            
        </module>
        <package>
            484 FBGA
        </package>
        <version>
            11.8.0.26
        </version>
    </header>
    <nvm>
        <region name="eNVM_boot_loader" address="0x000000" retrieveAddressFromFile="false" size="4640" format="HEX" type="Data Storage" wordSize="8" numberWords="4640" memFile="F:/11.8/sf2_isp_using_uart_interface_demo_df/host_tool_and_samples/LSRAM_Workaround/SoftConsole/demo_MSS_CM3_boot_loader/Release/demo_MSS_CM3_boot_loader.hex" memType="INTELHEX" memFileTimeStamp="1491227893" clientType="public" program="true">
            00000120910100007f030000810300008303000085030000870300000000
            0000000000000000000000000000890300008b030000000000008d030000
            8f03000091030000930300009503000097030000990300009b0300009d03
            00009f030000a1030000a3030000090a0000250a0000a9030000ab030000
            ad030000af030000b1030000b3030000b5030000d50a0000b9030000bb03
            0000bd030000bf030000c1030000c3030000c5030000590e0000f90e0000
            cb030000cd030000cf030000d1030000d3030000d5030000d7030000d903
            0000db030000dd030000df030000e1030000e3030000e5030000e7030000
            e9030000eb030000ed030000ef030000f1030000f3030000f5030000f703
            0000f9030000fb030000fd030000ff030000010400000304000005040000
            07040000090400000b0400000d0400000f04000011040000130400001504
            000017040000190400001b0400001d0400001f0400002104000023040000
            2504000027040000290400002b0400002d0400002f040000310400003304
            000000000000000000004ff0000bdff8be020068dff8b612096801f00301
            00f01c00142801d14bf0020b002901d04bf0010bbbf1000f05d0a748a749
            dff8722200f09ff8a64880470bf0020abaf1000f0cd0dff86e02dff86e12
            02680b680fb44ff000024ff0ff0302600b609d489d4a9e4b022808d1dff8
            3e120a60dff842120a60dff836120b60012808d1dff82e120a60dff82a12
            0a60dff81e120b609348002809d193489349944a00f032f893489449944a
            00f02df894489449954a00f028f894489549dff8e62100f05af8bbf1000f
            12d092489249dff8da2100f051f80bf0020abaf1000f07d00fbc02600b60
            00bfaff30080aff30080dff828020ff2030e00474ff000004ff00001dff8
            1cf2fee72de9f841884225d0b2eb010200d5fee740ea010313f0030302d0
            00f01df819e04ff0000390461211f7d09a421cbff0c8f0c103f10103f8d1
            08f00f08b8f1000f08d004780c7000f1010001f10101b8f10108f6d1bde8
            f88108b54ff0000303780b7000f1010001f10101013af7d108bd884237d0
            00f00306002e14d04ff00405a5eb06044ff0080707fb06f8914669fa08f9
            002c07d080f8009069fa07f900f10100013cf5e74ff000060f46091a8846
            0911914614461546b14206d018bfa0e8340206f10106b142f8d108f00f08
            b8f1000f07d002704fea322200f10100b8f10108f4e77047fee7fee7fee7
            fee7fee7fee7fee7fee7fee7fee7fee7fee7fee7fee7fee7fee7fee7fee7
            fee7fee7fee7fee7fee7fee7fee7fee7fee7fee7fee7fee7fee7fee7fee7
            fee7fee7fee7fee7fee7fee7fee7fee7fee7fee7fee7fee7fee7fee7fee7
            fee7fee7fee7fee7fee7fee7fee7fee7fee7fee7fee7fee7fee7fee7fee7
            fee7fee7fee7fee7fee7fee7fee7fee7fee7fee7fee7fee7fee7fee7fee7
            fee7fee7fee7fee7fee7fee7fee7fee7fee7fee7fee7fee7fee770470000
            0000a2a2a2a2008003400880034010800340308003403480034038800340
            18080240000000f8002000000120ad0f0000000000000000000001000000
            00000000000000000000000090010000c0040000c0040000001200000012
            000000f0002020f0002020f0002010f1002010f1002000f8002029110000
            dd10000000000000000000000000000010b5054c237833b9044b13b10448
            aff300800123237010bd20f0002000000000d4110000084b10b51bb10848
            0849aff300800848036803b910bd074b002bfbd0bde81040184700bf0000
            0000d411000024f0002000f0002000000000244b984203d0244a904200d0
            00be0269002a3ad0416901b900be984203d01e4b984200d07047002afcd0
            0029fad030b40468457b237ddbb21d4313f0200f4573836911d0cd1a0f2d
            21d91025002101e004680269d35c013123708369a94203f101038361f4d3
            416999420cd103680021043303f0704202f10072c3f3130304325b014161
            d15030bc704700bec2e7002ddcd1e9e7ccf000208cf000202de9f04fdff8
            64e283b070450446904600f0db808f4b984200d000be8e488f4b05469a6c
            8e4e42f480724ff00b0c4ff40067206084f804c09a64c6f880719a6c22f4
            80729a6400232b7122684ff0010c13722268744502f1080002f1100502f1
            3409c0f3130a00f0704002f1380702f13006c5f3130b00eb4a1005f07045
            c9f3130a09f0704905eb4b1509eb4a19c7f3130bc6f3130a07f0704706f0
            704607eb4b1706eb4a1600f1007006f1007605f1007509f1007907f10077
            c0f804c0c0f808c0c0f800c02b616b61c9f80430c9f800307b607361b361
            f361fb6082f84430226882f84830226882f84c3000f08280584b9c4217d0
            00be2268002382f80c80a16084f80c8063612361a36123626362e361a362
            e36223636363a363e363637303b0bde8f08fa160019100f083fc4d4b0199
            1b68db00b3fbf1f2d309b3f5803f4fea520ed7d2012b26684ff0010759d9
            06f10c0000f0704505f10075c0f31300c2f3c73c1c3540012f5086f804c0
            2068ddb205702668aeeb831e06f10c0506f13000aeebc31305f0704900f0
            704c1344a3eb4e0309f10072c5f313050cf1007cc0f313001c326d014ff0
            000e0cf11c0c4001ff2b42f805e04cf8007000d900bedbb286f83c302268
            97e7244b24489a6c4ff4806542f080024ff080470a26276026719a64c0f8
            80519a6c256822f080029a6428e7a160019100f01cfc1a4b01991b6897e7
            06f10c0202f0704000f10070c2f3130200251c305201875035712268dbb2
            1370226802f10c0002f1300300f0704703f0704607f10077c0f3130006f1
            0076c3f313031c3740011c365b013d50f55052e78cf00020000001400080
            034000e100e018f0002014f00020ccf000200268137a03f00f030c2b0ad8
            dfe803f007090f1371090b09090909097100836a23b900be7047c369002b
            fad01847436a002bf6d01847283202f07043c2f31302520103f100718958
            10b511f0ff0f04460ad0c16a002959d0884723682833c3f31302520103f0
            70431a4402f100735b6813f0ff0f0cd0236b002b45d02046984722682832
            02f07043c2f3130203eb421202f100739b6813f0ff0f0cd0636b002b30d0
            204698472268283202f07043c2f3130203eb421202f10073db6813f0ff0f
            0bd0a36be3b1204698472268283202f07043c2f3130203eb421202f10072
            136913f0ff0f09d0e36b43b12046bde810409ce7036a002b94d0184710bd
            00be10bd00beeae700bed6e700bec1e700beabe7f8b5194b0446984203d0
            184b984200d000be2046fff734fe2368154e03f1300103f1340201f07045
            383302f0704003f0704705f10075c1f3130100f10070c2f31302c3f31303
            4ff0000e0c3549010830520107f100775b0145f801e040f802e047f803e0
            6662f8bdccf000208cf000201d050000144b70b4984206d0134b984203d0
            00bee1b170bc7047c9b10e78002ef9d000250468427b237ddbb21a439b06
            4273f9d54b1905f1100200e00468267013f8016f0135002ee5d09542f6d1
            e9e700be70bc704700bfccf000208cf00020684620f007018d4601b50348
            fff708ffbde8014085467047ccf00020684620f007018d4601b50348fff7
            fafebde80140854670478cf0002030b4124c82b0236823f0040323606368
            03f001030193019babb181b1451e002201e08a420bd015f8013f01322361
            636803f001030193019b002bf2d11146084602b030bc70471946f9e700bf
            006001400b4b10b50b4c1988236889b233b10a4a10689847094a00231370
            2360084b1a46196841f0010119601368db07fcd410bd5cf0002058f00020
            64f0002048f0002000600140914af8b553689468dbb21c40a0071dd4e107
            00d4f8bd8d4e3378022b61d0052b2fd0012b4ed0884a894c936823f00103
            936023683bb1874a002110689847864a00231370236000233370f8bd1069
            7f4e20f4ff43327823f07f039db2c0b2052a00f2bc80dfe812f091009d00
            9d00a50064005000794b1a68002a40f08f80e307c8d5774c236883b9764b
            1b68002b00f0d280754898472060236833b96a4a0321936823f001039360
            317023686c4c002b40f0b580644a0321936823f0010393603170f8bd694c
            23889bb2002b40f0938000be614b1b78002b9cd0bde8f840fff76dbf5f4c
            2368002bf2d05f4d21682868fff73cff23689842dcd223682a681b1a1044
            23602860f8bd002db3d1514b504f1a683b6850702bb11046022198474e4b
            3d601d7000233370e2077ff573af7ae7002d2fd14e4a474913880d689bb2
            2b4413f8013cf12b00f0a5804a49138809889bb28b4206d217881388bfb2
            01339bb2e85513801388424a9bb299427ff450af374f13883a6899b2002a
            d3d028469047354a002313703b60cce7002dccd0f12800f09080314b1a68
            002ac5d01b68984736e7002d3ff434af2c4b1a68002af5d12ee7002db8d0
            304b1b789842ead12c4a002313801188234d13882f68013389b29bb20425
            138078543570a5e71c4d2b68002b9fd01b4a0021106898471a4a00231370
            2b6096e7214f21883d6889b22846fff7b4fe23889bb2984239d30022144b
            22801b68002b3ad002233370f8bd124d21682868fff7a2fe2a6823680244
            181a2a602060f8bd00be074b1b78002b3ff434affff7bbfe30e700600140
            68f0002058f0002064f0002048f000204cf0002060f0002040f0002054f0
            002050f000205cf000203cf0002069f0002044f00020238805441b1a9bb2
            3d602380f8bd03233370f8bd1188104f13888ab29bb23968a8541d4415f8
            010c00293ff43baf3b68984737e7094b00271f8019881a88084d013292b2
            1a801b882d688ab29bb20421a8543170ef5427e74cf000205cf0002064f0
            00202de9f041224cdff894e02468214d4fea840c0ceb04064fea8608f701
            08f1402606f58036be44cef8043045447060b1606e68b2f5803f4fea1646
            4fea06466e601bd86b6892b214491a4300236a600b616444104aa3001a44
            5168e40104f1844303f5201341f4e001012500245160c3f8c051c3f8cc41
            bde8f081074ba2f5803201f5803100f580301a61d9609860dfe788f00020
            084001406cf00020c0012842684620f007018d4679b52048204a0368204c
            03eb8301890003f52875012644f825600a4451683344042b08bf002321f4
            e00151600360184b1a697ab11748016804290cbf0021013101609868d968
            1b7dfff786ffbde879408546704702680c4902eb8202920011444a68084c
            12f4e002f0d10a4d5968012022602a6018700029e8d08847bde879408546
            704784f0002008400140000028426cf0002088f00020684620f007018d46
            244b31b51b6813f4706f19d0224c23689900ca18d20102f1844202f52012
            d2f808223ab11d4a02205568107015b1a847236899000b441a4adb011a44
            53680bbb144b1b6813f4704f05d0144b04205a68187002b19047bde83140
            124a12490123c2f8c8318546c2f8803ac2f84834c1f8803ac2f8c836c1f8
            843ac2f84839c1f8883a7047054b03205a681870002ad7d09047d5e70040
            014084f000206cf000200802284200002842040028424ff602020c4bd3f8
            4c11914206d00b4a536943f400735361fff736bad3f8982042f48072c3f8
            9820d3f8982022f08062c3f89820ebe700bf0080034000ed00e0f0b5244b
            83b0d3f89820510117d4d3f89820d2042ed56a461f490868496803c2d3f8
            9c2002a9c2f382120a4412f8082c012a23d003d3dff88ce0184b09e0d3f8
            5011174a11f0040f164b18bf1346dff874e0154f154e164d164c1748174a
            1849cef800303b6033602b6023600360116003b0f0bddff84ce0094beae7
            dff844e0094f0a4e0a4d0b4c0b480c4a0c494ff40043e5e7008003407411
            000040420f0080f0fa0240787d0114f0002018f000200cf0002010f00020
            04f0002008f0002020bcbe001cf0002008b54ff000531b6883f30888044a
            05491368096843f0010313608847fee700bf008003400400002008b50322
            0b484ff46141fff727fc09480949fff75dfc07480849fff759fc084a084b
            094853f8041b834242f8041ff9d1fff7d2ff8cf000207c110000a0110000
            fcffff1f0000026000f002600e4b70b51e460e4c0025e41aa410a54204d0
            56f8253098470135f8e700f046f8084b094c1e46e41aa4100025a54204d0
            56f8253098470135f8e770bdec110000ec110000ec110000f01100000001
            0001020203030a0d0a0d2a2a2a20536d617274467573696f6e3220495350
            2044656d6f202a2a2a0a0d000a0d52656d6d6170696e6720746865206d61
            696e206170706c69636174696f6e20636f646520746f20655352414d5f30
            200a0d00f8b500bff8bc08bc9e467047f8b500bff8bc08bc9e467047e504
            0000c10400000000000000000000000000000000000080f0fa0220bcbe00
            80f0fa0280f0fa0280f0fa0280f0fa0280f0fa02
            <crc>
                659e
            </crc>
        </region>
        <region name="ISP_APP_running_from_eSRAM" address="0x040000" retrieveAddressFromFile="false" size="7824" format="HEX" type="Data Storage" wordSize="8" numberWords="7824" memFile="F:/11.8/sf2_isp_using_uart_interface_demo_df/host_tool_and_samples/LSRAM_Workaround/SoftConsole/demo_MSS_CM3_app/Release/demo_MSS_CM3_app.hex" memType="INTELHEX" memFileTimeStamp="1491227888" clientType="public" program="true">
            00f00000910100007f030000810300008303000085030000870300000000
            0000000000000000000000000000890300008b030000000000008d030000
            8f03000091030000930300009503000097030000990300009b0300009d03
            00009f030000a1030000a3030000311400004d140000a9030000ab030000
            ad030000af030000b1030000b3030000b5030000d1080000b9030000bb03
            0000bd030000bf030000c1030000c3030000c503000009150000a9150000
            cb030000cd030000cf030000d1030000d3030000d5030000d7030000d903
            0000db030000dd030000df030000e1030000e3030000e5030000e7030000
            e9030000eb030000ed030000ef030000f1030000f3030000f5030000f703
            0000f9030000fb030000fd030000ff030000010400000304000005040000
            07040000090400000b0400000d0400000f04000011040000130400001504
            000017040000190400001b0400001d0400001f0400002104000023040000
            2504000027040000290400002b0400002d0400002f040000310400003304
            000000000000000000004ff0000bdff8be020068dff8b612096801f00301
            00f01c00142801d14bf0020b002901d04bf0010bbbf1000f05d0a748a749
            dff8722200f09ff8a64880470bf0020abaf1000f0cd0dff86e02dff86e12
            02680b680fb44ff000024ff0ff0302600b609d489d4a9e4b022808d1dff8
            3e120a60dff842120a60dff836120b60012808d1dff82e120a60dff82a12
            0a60dff81e120b609348002809d193489349944a00f032f893489449944a
            00f02df894489449954a00f028f894489549dff8e62100f05af8bbf1000f
            12d092489249dff8da2100f051f80bf0020abaf1000f07d00fbc02600b60
            00bfaff30080aff30080dff828020ff2030e00474ff000004ff00001dff8
            1cf2fee72de9f841884225d0b2eb010200d5fee740ea010313f0030302d0
            00f01df819e04ff0000390461211f7d09a421cbff0c8f0c103f10103f8d1
            08f00f08b8f1000f08d004780c7000f1010001f10101b8f10108f6d1bde8
            f88108b54ff0000303780b7000f1010001f10101013af7d108bd884237d0
            00f00306002e14d04ff00405a5eb06044ff0080707fb06f8914669fa08f9
            002c07d080f8009069fa07f900f10100013cf5e74ff000060f46091a8846
            0911914614461546b14206d018bfa0e8340206f10106b142f8d108f00f08
            b8f1000f07d002704fea322200f10100b8f10108f4e77047fee7fee7fee7
            fee7fee7fee7fee7fee7fee7fee7fee7fee7fee7fee7fee7fee7fee7fee7
            fee7fee7fee7fee7fee7fee7fee7fee7fee7fee7fee7fee7fee7fee7fee7
            fee7fee7fee7fee7fee7fee7fee7fee7fee7fee7fee7fee7fee7fee7fee7
            fee7fee7fee7fee7fee7fee7fee7fee7fee7fee7fee7fee7fee7fee7fee7
            fee7fee7fee7fee7fee7fee7fee7fee7fee7fee7fee7fee7fee7fee7fee7
            fee7fee7fee7fee7fee7fee7fee7fee7fee7fee7fee7fee7fee770470000
            0000a2a2a2a2008003400880034010800340308003403480034038800340
            18080240000000e0000000f000005d160000000000000000000001000000
            00000000000000000000000090010000c0040000c0040000001e0000001e
            0000001e0000901e0000901e0000d02f0000d02f000000e00000291b0000
            4119000000000000000000000000000010b5054c237833b9044b13b10448
            aff300800123237010bd901e000000000000d41d0000084b10b51bb10848
            0849aff300800848036803b910bd074b002bfbd0bde81040184700bf0000
            0000d41d0000941e0000001e00000000000030b4124c82b0236823f00403
            2360636803f001030193019babb181b1451e002201e08a420bd015f8013f
            01322361636803f001030193019b002bf2d11146084602b030bc70471946
            f9e700bf006001400b4b10b50b4c1988236889b233b10a4a10689847094a
            002313702360084b1a46196841f0010119601368db07fcd410bdcc1e0000
            c81e0000d41e0000b81e0000006001402de9f04f234a244cdff89ca00023
            4ff40025dff89890dff89880204edff894b0c4f880509360c4f880518af8
            0030dff888a08bf80030dff884c0a9f80030dff880e0c8f80030164f3380
            164e8af80030ccf80030cef800303b8033601368dff86490dff8648023f0
            2003c9f80000c8f800101360136843f010031360936823f0010393609368
            43f0020393602560bde8f08f00bf0060014000e100e0cc1e0000ac1e0000
            c81e0000b81e0000c01e0000d01e0000d91e0000d81e0000b41e0000c41e
            0000bc1e0000d41e00002de9f04f83b00646bdf834a00c4601b900be3949
            394f4ff400200025dff8fcb0c1f88000bd60c1f880019bf8001000295bd1
            324896f800c00146dff8e4e0304d304fdff8e0808ef800c02a603c800c9d
            c8f800302c4b2d4a1d602d4d2d4ba2f800a000222a801a6001250e9bdff8
            b8c08bf80050ccf800308368dff8b09043f00203c9f8006083609ef80050
            0368edb223f0040303604b68184adb07fbd59561701c611efff7fcfe0130
            844212d800233b80d8f800304bb9174b03221a700e4b4ff400221a6003b0
            bde8f08f124b02221a70f4e73b88104a1b1a9bb230440121c9f800003b80
            1170e9e78de80c00fff7fffe9de80c009ce700e100e000600140c41e0000
            c01e0000d41e0000ac1e0000cc1e0000b01e0000d81e0000b81e0000d91e
            0000d01e0000c81e0000b41e00002de9f04f054683b09b460c4601b900be
            364b37484ff400210027dff8f090c3f880108760c3f8801199f80030002b
            58d12f482f7801462f4e2f4bdff8d480dff8d4c037700027a8f80040dff8
            cca0ccf800701f80294bcaf800701a60284f0c9b284aa7f800b01360dff8
            b0e00d9b012789f800703678cef800300368dff8a0a023f00403caf80050
            f6b203604b68184adb07fbd59661681c611efff769fe0130844211d8184a
            052100231170a8f800300f4a0e4993684ff4002043f003039360086003b0
            bde8f08fb8f800300e4a1b1a9bb228440121caf80000a8f800301170e6e7
            0192fff76cfe019aa1e700e100e000600140d91e0000cc1e0000d41e0000
            ac1e0000b01e0000d81e0000b81e0000c01e0000d01e0000c41e0000c81e
            0000b41e0000914af8b553689468dbb21c40a0071dd4e10700d4f8bd8d4e
            3378022b61d0052b2fd0012b4ed0884a894c936823f00103936023683bb1
            874a002110689847864a00231370236000233370f8bd10697f4e20f4ff43
            327823f07f039db2c0b2052a00f2bb80dfe812f091009c009c00a4006400
            5000794b1b68002b40f08f80e307c8d5774c236883b9764b1b68002b00f0
            d180754898472060236833b96a4a0321936823f001039360317023686c4c
            002b40f0b480644a0321936823f0010393603170f8bd694c23889bb2002b
            40f0928000be614b1b78002b9cd0bde8f840fff7ddbd5f4c2368002bf2d0
            5f4d21682868fff7acfd23689842dcd223682a681b1a104423602860f8bd
            002db3d1514b504f1a683b6850702bb11046022198474e4b3d601d700023
            3370e2077ff573af7ae7002d2fd14e4a474913880d689bb22b4413f8013c
            f12b00f0a5804a49138809889bb28b4206d217881388bfb201339bb2e855
            13801388424a9bb299427ff450af374f13883a6899b2002ad3d028469047
            354a002313703b60cce7002dccd0f12800f08f80314b1b68002bc5d09847
            37e7002d3ff435af2d4b1b68002bf6d12fe7002db9d0304b1b789842ebd1
            2c4a002313801188234d13882f68013389b29bb20425138078543570a6e7
            1d4d2b68002ba0d01c4a0021106898471b4a002313702b6097e7214f2188
            3d6889b22846fff725fd23889bb298423ad30022144b22801b68002b3bd0
            02233370f8bd124d21682868fff713fd2a6823680244181a2a602060f8bd
            00be084b1b78002b3ff435affff72cfd31e700bf00600140d81e0000c81e
            0000d41e0000b81e0000bc1e0000d01e0000b01e0000c41e0000c01e0000
            cc1e0000ac1e0000d91e0000b41e0000238805441b1a9bb23d602380f8bd
            03233370f8bd1188104f13888ab29bb23968a8541d4415f8010c00293ff4
            3baf884738e70a4b00271f8019881a88084d013292b21a801b882d688ab2
            9bb20421a8543170ef5428e700bfbc1e0000cc1e0000d41e000000b5e028
            83b010d0e12831d0f12803d080f08003202b49d8274b1b6813b1274a5178
            984703b05df804fb41f288332449009301e0009b3bb1d1f89820009bd204
            03f1ff330093f5d51d4a1b49d2f8983023f46f6323f00c03c2f898300b68
            002be0d0164ae0205178984703b05df804fb41f288331249019301e0019b
            33b1d1f89820019b013b0193d304f6d40d4b0c4a1968094bc2f898101b68
            002bc2d0074ae1205178984703b05df804fb00f14f03dbb2062bb0d9b5e7
            dc1e0000ec1e000000800340f81e000010b5154c82b02378012b1bd1134b
            1b78c3b141f288331249019301e0019b33b1d1f89820019b013b0193d304
            f6d500230b4a2370d2f8983023f46f6323f00c03c2f89830074b1b6813b1
            984702b010bd184602b010bd00bf081e0000ee1e000000800340e81e0000
            064a074b1168074ad9601168064ac3f89c1013680bb1407818477047041e
            000000800340fc1e0000e41e0000024a034b0020107019807047e01e0000
            f01e000030b40849084d0023084a2b80084c0b70d2f89820074b20600749
            084830bc1a60fff734bce01e0000f01e000000800340dc1e0000f81e0000
            ec1e0000b50b00004ff602032de9f041294a86b0d2f84c2186469a4241d0
            264a264bd2f84c219a4239d0234a244bd2f84c219a4231d01ef0300f05d0
            1e4a204bd2f84c219a422ed01e4c23781d4e03f0ff05002bf9d11c4a1c4f
            05ab02214ff001080292009301914ff0170c86f8008004a82a462b463d80
            8df811e08df810c0fff74efc2378002bfcd13b889bb2022b0bd0c82006b0
            bde8f08100becbe700bec3e700bebbe700becee79df81430172befd19df8
            1500ede70080034002f8010002f80200e01e0000110d0000f01e00002de9
            f04f022885b006460f46904638d02f4a3049d36830480b60d2f89c402f49
            43f4ff530460d3600e70002e39d12c4a13782b4d03f0ff04002bf9d1294a
            2a4bdff8b0c00221dff8b090dff8b0a08de80c004ff0150e4ff0010b0b46
            03a8234a85f800b08df80d60caf80080a9f80040ccf800708df80ce0fff7
            82fc05b0bde8f08f0120fff758ff114a1249d36812480b60d2f89c401149
            43f4ff530460d3600e700b4b0022d3f89c10c3f89c20d3f89c200f4942f4
            0072c3f89c20d3f89c20012042f48062c3f89c200870afe700bf00800340
            041e0000fc1e0000ee1e0000e01e00007d0c0000e50c0000f41e0000081e
            0000e81e0000f01e0000e41e0000244b984203d0244a904200d000be0269
            002a3ad0416901b900be984203d01e4b984200d07047002afcd00029fad0
            30b40468457b237ddbb21d4313f0200f4573836911d0cd1a0f2d21d91025
            002101e004680269d35c013123708369a94203f101038361f4d341699942
            0cd103680021043303f0704202f10072c3f3130304325b014161d15030bc
            704700bec2e7002ddcd1e9e7701f0000301f00002de9f04fdff864e283b0
            70450446904600f0db808f4b984200d000be8e488f4b05469a6c8e4e42f4
            80724ff00b0c4ff40067206084f804c09a64c6f880719a6c22f480729a64
            00232b7122684ff0010c13722268744502f1080002f1100502f13409c0f3
            130a00f0704002f1380702f13006c5f3130b00eb4a1005f07045c9f3130a
            09f0704905eb4b1509eb4a19c7f3130bc6f3130a07f0704706f0704607eb
            4b1706eb4a1600f1007006f1007605f1007509f1007907f10077c0f804c0
            c0f808c0c0f800c02b616b61c9f80430c9f800307b607361b361f361fb60
            82f84430226882f84830226882f84c3000f08280584b9c4217d000be2268
            002382f80c80a16084f80c8063612361a36123626362e361a362e3622363
            6363a363e363637303b0bde8f08fa160019100f0d3fa4d4b01991b68db00
            b3fbf1f2d309b3f5803f4fea520ed7d2012b26684ff0010759d906f10c00
            00f0704505f10075c0f31300c2f3c73c1c3540012f5086f804c02068ddb2
            05702668aeeb831e06f10c0506f13000aeebc31305f0704900f0704c1344
            a3eb4e0309f10072c5f313050cf1007cc0f313001c326d014ff0000e0cf1
            1c0c4001ff2b42f805e04cf8007000d900bedbb286f83c30226897e7244b
            24489a6c4ff4806542f080024ff080470a26276026719a64c0f880519a6c
            256822f080029a6428e7a160019100f06cfa1a4b01991b6897e706f10c02
            02f0704000f10070c2f3130200251c305201875035712268dbb213702268
            02f10c0002f1300300f0704703f0704607f10077c0f3130006f10076c3f3
            13031c3740011c365b013d50f55052e7301f0000000001400080034000e1
            00e0201e00001c1e0000701f00000268137a03f00f030c2b0ad8dfe803f0
            07090f1371090b09090909097100836a23b900be7047c369002bfad01847
            436a002bf6d01847283202f07043c2f31302520103f10071895810b511f0
            ff0f04460ad0c16a002959d0884723682833c3f31302520103f070431a44
            02f100735b6813f0ff0f0cd0236b002b45d0204698472268283202f07043
            c2f3130203eb421202f100739b6813f0ff0f0cd0636b002b30d020469847
            2268283202f07043c2f3130203eb421202f10073db6813f0ff0f0bd0a36b
            e3b1204698472268283202f07043c2f3130203eb421202f10072136913f0
            ff0f09d0e36b43b12046bde810409ce7036a002b94d0184710bd00be10bd
            00beeae700bed6e700bec1e700beabe7f8b5194b0446984203d0184b9842
            00d000be2046fff734fe2368154e03f1300103f1340201f07045383302f0
            704003f0704705f10075c1f3130100f10070c2f31302c3f313034ff0000e
            0c3549010830520107f100775b0145f801e040f802e047f803e06662f8bd
            701f0000301f00002d0f00001a4bf0b5984203d0194ca04200d000be51b3
            02b900be984203d0154b984200d0f0bd0029fcd0002afad00e460468457b
            4ff0000e237ddbb21d439b064573f9d50f2a94bf17461027be44334601eb
            0e0600e0046813f8015bb3422570f9d1d21bded00468457be5e700bed2e7
            701f0000301f0000684620f007018d4601b50348fff7fcfebde801408546
            7047701f0000684620f007018d4601b50348fff7eefebde8014085467047
            301f00002de9f041224cdff894e02468214d4fea840c0ceb04064fea8608
            f70108f1402606f58036be44cef8043045447060b1606e68b2f5803f4fea
            16464fea06466e601bd86b6892b214491a4300236a600b616444104aa300
            1a445168e40104f1844303f5201341f4e001012500245160c3f8c051c3f8
            cc41bde8f081074ba2f5803201f5803100f580301a61d9609860dfe71c1f
            000008400140001f0000c0012842684620f007018d4679b52048204a0368
            204c03eb8301890003f52875012644f825600a4451683344042b08bf0023
            21f4e00151600360184b1a697ab11748016804290cbf0021013101609868
            d9681b7dfff786ffbde879408546704702680c4902eb8202920011444a68
            084c12f4e002f0d10a4d5968012022602a6018700029e8d08847bde87940
            85467047181f00000840014000002842001f00001c1f0000684620f00701
            8d46244b31b51b6813f4706f19d0224c23689900ca18d20102f1844202f5
            2012d2f808223ab11d4a02205568107015b1a847236899000b441a4adb01
            1a4453680bbb144b1b6813f4704f05d0144b04205a68187002b19047bde8
            3140124a12490123c2f8c8318546c2f8803ac2f84834c1f8803ac2f8c836
            c1f8843ac2f84839c1f8883a7047054b03205a681870002ad7d09047d5e7
            00400140181f0000001f00000802284200002842040028424ff602020c4b
            d3f84c11914206d00b4a536943f400735361fef7debed3f8982042f48072
            c3f89820d3f8982022f08062c3f89820ebe700bf0080034000ed00e0f0b5
            244b83b0d3f89820510117d4d3f89820d2042ed56a461f490868496803c2
            d3f89c2002a9c2f382120a4412f8082c012a23d003d3dff88ce0184b09e0
            d3f85011174a11f0040f164b18bf1346dff874e0154f154e164d164c1748
            174a1849cef800303b6033602b6023600360116003b0f0bddff84ce0094b
            eae7dff844e0094f0a4e0a4d0b4c0b480c4a0c494ff40043e5e700800340
            9c1c000040420f0080f0fa0240787d011c1e0000201e0000141e0000181e
            00000c1e0000101e000020bcbe00241e000000b583b0019060b10a480b49
            0122fff723fe084801a90822fff71efe03b05df804fb044805490122fff7
            16fe03b05df804fb00bf301f0000a81c0000a41c00002de9f0475d4e5e4c
            3268236884b04ff480519a420746029102d00bb913462260584a03f58051
            1268914284bfd11a02919a4240f29b80544ddff85c914ff0000851485249
            0122fff7e7fd2b681a7dd007fcd50df1040a52461878197d02f8010bc907
            f9d422689df80410d208612903925cd01a7dd207fcd501aa1878197d02f8
            010bc907f9d49df80420612a55d01a7dd007fcd501a918781a7d01f8010b
            12f00102f8d19df8041061292ad0012236483749fff7b1fd2a68137ddb07
            fcd51178137d0af8011b13f00103f8d1029a013a08bf13460ad0012119f8
            01e04900b2fbf1f083ea0e03dbb20028f5d19df904205bb29a4228d02448
            26490122fff78cfd9ee7029880460028d0d090461a7dd20709d509eb0802
            197808f1010802f8011b197dc907f7d44045f0d8bfe7164803a90822fff7
            71fd2b689be7134802a90422fff76afd2b68a2e72268336808eb02054344
            0d480e49012225603360fff75cfd4046c7f8009004b0bde8f087dff82890
            0020c7f8009004b0bde8f087241f00002c1f0000201f0000301f0000ac1c
            0000b01c0000b41c0000b01f000070b56b4d82b04ff4614128460322fff7
            fbfc0020fff7e6f92b681a7dd007fcd56e466a46197802f8011b197dcc07
            f9d49df80020682af0d15d485e490122fff71dfd2b681a7dd207fcd56a46
            197802f8011b197dc907f9d49df800206e2a00f09f801a7dd007fcd56a46
            197802f8011b197dcc07f9d49df80020732a00f089801a7dd207fcd56a46
            197802f8011b197dc907f9d49df80020612a73d01a7dd007fcd56a461978
            02f8011b197dcc07f9d49df80020652a5ed01a7dd207fcd56a46197802f8
            011b197dc907f9d4384839490122fff7d3fc012235483749fff7cefc2a68
            137ddc07fcd5137806f8013b137d13f00104f8d19df80030304e01222c48
            2f493370fff7bafc23462a68117dc90708d50deb03011078013301f8010b
            107dc007f8d4072bf1d9684600f059f8254b2049186001221e48fff7a0fc
            3378312b13d0322b08d0302b00d0fee700201e491e4afff7cbf9f8e70020
            fff743f9022019491a4afff7c2f9efe701201649174afff7bcf9e9e70e48
            15490122fff77efc2b6899e70a4813490122fff777fc2b6884e707481049
            0122fff770fc2b686fe703480e490122fff769fc2b6859e700bf301f0000
            b01c0000c81c0000281f0000cc1c0000201f0000a517000065170000c41c
            0000c01c0000bc1c0000b81c000000210a2200f0acb80e4b70b51e460e4c
            0025e41aa410a54204d056f8253098470135f8e700f046f9084b094c1e46
            e41aa4100025a54204d056f8253098470135f8e770bdec1d0000ec1d0000
            ec1d0000f01d00002de9f0470f46404cd4f800903d4615f801eb09eb0e04
            667806f0080404f0ff060cb12f46f2e774462d2c03d1bd1c7c78012603e0
            2b2c04bf7c78bd1c13b1102b0ad15ae0302c56d12c7804f0df04582c4cd1
            6c7810230235002e14bf4ff000486ff00048b8fbf3fa0027be4603fb1a88
            09eb040c9cf801c01cf0040f01d0303c0be01cf0030c1bd0bcf1010f0cbf
            4ff0370c4ff0570ccceb04049c4210dab7f1ff3f0ad0d64506d801d14445
            03dc03fb0e4e012701e04ff0ff3715f8014bd7e77c1c73460ad1002e4ff0
            220114bf4ff000436ff0004301602ab911e00eb1cef100036ab107b1691e
            116009e03024002bb2d10823b0e70a23aee7302cacd1a3e71846bde8f087
            00bf8c1e000030b505460c461346034a294610682246bde83040fff76ebf
            881e00000001000102020303700000007100000062000000610000006e00
            000064000000680000006b000000720000006d0000007a00000043000020
            202020202020202028282828282020202020202020202020202020202020
            208810101010101010101010101010101004040404040404040404101010
            101010104141414141410101010101010101010101010101010101010101
            101010101010424242424242020202020202020202020202020202020202
            020210101010200000000000000000000000000000000000000000000000
            000000000000000000000000000000000000000000000000000000000000
            000000000000000000000000000000000000000000000000000000000000
            000000000000000000000000000000000000000000000000000000000000
            00000000000000000000000000000000f8b500bff8bc08bc9e467047f8b5
            00bff8bc08bc9e467047e5040000c1040000000000000000000000000000
            00000000f11f00000100000080f0fa0220bcbe0080f0fa0280f0fa0280f0
            fa0280f0fa0280f0fa020000000000000000000000000000000000000000
            000000000000000000000000d01c00000000000000000000000000000000
            000000000000000000000000000000000000000000000000000000000000
            00000000000000000000000000000000281e0000d21c0000
            <crc>
                e9e5
            </crc>
        </region>
    </nvm>
</Actel_Data_File>
